Time (s), Voltage (V)
-5.296875000000000194e-02,2.436543790217262501e-02
-5.294859996344000036e-02,2.436174423056368735e-02
-5.292844992686999983e-02,2.435757195635163130e-02
-5.290829989030999825e-02,2.435293516315991530e-02
-5.288814985374999667e-02,2.434784793461199776e-02
-5.286799981719000202e-02,2.434232435433130587e-02
-5.284784978062000149e-02,2.433637850594131541e-02
-5.282769974405999991e-02,2.433002447306547092e-02
-5.280754970749999833e-02,2.432327633932721694e-02
-5.278739967093999674e-02,2.431614818835000497e-02
-5.276724963437000315e-02,2.430865410375728994e-02
-5.274709959781000157e-02,2.430080816917252334e-02
-5.272694956124999999e-02,2.429262446821914972e-02
-5.270679952468999840e-02,2.428411708452063444e-02
-5.268664948811999788e-02,2.427530010170041164e-02
-5.266649945156000323e-02,2.426618760338194319e-02
-5.264634941500000165e-02,2.425679367318867366e-02
-5.262619937844000007e-02,2.424713239474405799e-02
-5.260604934186999954e-02,2.423721785167155113e-02
-5.258589930530999795e-02,2.422706412759459069e-02
-5.256574926875000331e-02,2.421668530613663856e-02
-5.254559923219000173e-02,2.420609547092114622e-02
-5.252544919562000120e-02,2.419530870557156169e-02
-5.250529915905999961e-02,2.418433909371133991e-02
-5.248514912249999803e-02,2.417320071896391850e-02
-5.246499908594000339e-02,2.416190766495231179e-02
-5.244484904937000286e-02,2.414394862397742716e-02
-5.242469901281000128e-02,2.412655513148609376e-02
-5.240454897624999969e-02,2.412065752338625468e-02
-5.238439893968999811e-02,2.409578887403971900e-02
-5.236424890311999758e-02,2.409341371038935253e-02
-5.234409886656000294e-02,2.409198908015990417e-02
-5.232394883000000135e-02,2.408779700332917134e-02
-5.230379879343999977e-02,2.408990455276403819e-02
-5.228364875686999924e-02,2.408070833087905954e-02
-5.226349872030999766e-02,2.405144189222813145e-02
-5.224334868375000301e-02,2.404163923531630470e-02
-5.222319864719000143e-02,2.404253333710796442e-02
-5.220304861062000090e-02,2.402373898842510500e-02
-5.218289857405999932e-02,2.399231101723662413e-02
-5.216274853749999774e-02,2.398778342204761077e-02
-5.214259850094000309e-02,2.400146556886858726e-02
-5.212244846437000256e-02,2.401397249088267627e-02
-5.210229842781000098e-02,2.399700379396996208e-02
-5.208214839124999940e-02,2.397939059774806606e-02
-5.206199835468999781e-02,2.395043592833313861e-02
-5.204184831811999729e-02,2.391214614827016569e-02
-5.202169828156000264e-02,2.390598844820900765e-02
-5.200154824500000106e-02,2.388181033092435721e-02
-5.198139820843999948e-02,2.384860039411945340e-02
-5.196124817186999895e-02,2.383890773743414099e-02
-5.194109813530999736e-02,2.382033754784886742e-02
-5.192094809875000272e-02,2.380886596298851035e-02
-5.190079806219000114e-02,2.377982621123875262e-02
-5.188064802562000061e-02,2.376190043036036786e-02
-5.186049798905999902e-02,2.375323390337221591e-02
-5.184034795249999744e-02,2.373614475752519604e-02
-5.182019791594000280e-02,2.373938830098031375e-02
-5.180004787937000227e-02,2.372366389725655972e-02
-5.177989784281000069e-02,2.370881142721193574e-02
-5.175974780624999910e-02,2.369490672495366823e-02
-5.173959776968999752e-02,2.369094105189200813e-02
-5.171944773311999699e-02,2.367031710797480940e-02
-5.169929769656000235e-02,2.367256889170716444e-02
-5.167914766000000076e-02,2.367421437631610920e-02
-5.165899762343999918e-02,2.366455334662120880e-02
-5.163884758686999865e-02,2.364559804752044275e-02
-5.161869755030999707e-02,2.363904895920587029e-02
-5.159854751375000242e-02,2.362134500215135394e-02
-5.157839747719000084e-02,2.363202017486194101e-02
-5.155824744062000031e-02,2.364261979659742705e-02
-5.153809740405999873e-02,2.363167084418627689e-02
-5.151794736749999715e-02,2.362986770028720901e-02
-5.149779733094000250e-02,2.364820796620490176e-02
-5.147764729437000197e-02,2.364746681691499638e-02
-5.145749725781000039e-02,2.363670808398785766e-02
-5.143734722124999881e-02,2.363384109719314508e-02
-5.141719718468999722e-02,2.362816885999637767e-02
-5.139704714811999670e-02,2.361479452988697603e-02
-5.137689711156000205e-02,2.361355796507236607e-02
-5.135674707500000047e-02,2.363159568733107924e-02
-5.133659703843999889e-02,2.364052882737954775e-02
-5.131644700186999836e-02,2.364756383610002247e-02
-5.129629696530999677e-02,2.361340271806790236e-02
-5.127614692875000213e-02,2.359726180207886298e-02
-5.125599689219000055e-02,2.358836828014179363e-02
-5.123584685562000002e-02,2.358881020861128969e-02
-5.121569681905999843e-02,2.356121423814763402e-02
-5.119554678249999685e-02,2.353619569865637168e-02
-5.117539674594000221e-02,2.353158544474348232e-02
-5.115524670937000168e-02,2.350800700582074410e-02
-5.113509667281000010e-02,2.348522442863892890e-02
-5.111494663624999851e-02,2.346828675621147331e-02
-5.109479659968999693e-02,2.343557256109946030e-02
-5.107464656312000334e-02,2.341962770164624646e-02
-5.105449652656000176e-02,2.340975784502435236e-02
-5.103434649000000017e-02,2.338642049650003704e-02
-5.101419645343999859e-02,2.337340419261999327e-02
-5.099404641686999806e-02,2.333333558404449004e-02
-5.097389638031000342e-02,2.330574542798206569e-02
-5.095374634375000183e-02,2.329962820448889388e-02
-5.093359630719000025e-02,2.328652923282475973e-02
-5.091344627061999972e-02,2.324683287050624547e-02
-5.089329623405999814e-02,2.322697629844345732e-02
-5.087314619749999656e-02,2.324680261614035098e-02
-5.085299616094000191e-02,2.321871338422116723e-02
-5.083284612437000138e-02,2.320200340664523714e-02
-5.081269608780999980e-02,2.318783306756620408e-02
-5.079254605124999822e-02,2.318326041359895437e-02
-5.077239601468999664e-02,2.317758844820903136e-02
-5.075224597812000304e-02,2.316398655915152122e-02
-5.073209594156000146e-02,2.318012812294684838e-02
-5.071194590499999988e-02,2.316508517067159337e-02
-5.069179586843999830e-02,2.318209852091735607e-02
-5.067164583186999777e-02,2.316325796960249164e-02
-5.065149579531000312e-02,2.315507650909376033e-02
-5.063134575875000154e-02,2.316461484971302914e-02
-5.061119572218999996e-02,2.316535150286485809e-02
-5.059104568561999943e-02,2.316130183469569670e-02
-5.057089564905999785e-02,2.315952655552743628e-02
-5.055074561250000320e-02,2.314925285736892102e-02
-5.053059557594000162e-02,2.313939616752317199e-02
-5.051044553937000109e-02,2.313887191329317902e-02
-5.049029550280999951e-02,2.312992505152960260e-02
-5.047014546624999792e-02,2.312147100953544643e-02
-5.044999542969000328e-02,2.313134064191670058e-02
-5.042984539312000275e-02,2.314883961584589603e-02
-5.040969535656000117e-02,2.313466138983851297e-02
-5.038954531999999958e-02,2.311942187138962476e-02
-5.036939528343999800e-02,2.314458558744208680e-02
-5.034924524686999747e-02,2.314922723277946029e-02
-5.032909521031000283e-02,2.313156201952434182e-02
-5.030894517375000125e-02,2.311329042786881491e-02
-5.028879513718999966e-02,2.309247926566809078e-02
-5.026864510061999913e-02,2.309082577181772317e-02
-5.024849506405999755e-02,2.307980209517725839e-02
-5.022834502750000291e-02,2.307538437337154635e-02
-5.020819499094000132e-02,2.304903887290721265e-02
-5.018804495437000079e-02,2.305307874017487393e-02
-5.016789491780999921e-02,2.305013650818774074e-02
-5.014774488124999763e-02,2.302951518041134599e-02
-5.012759484469000298e-02,2.301291199574125035e-02
-5.010744480812000246e-02,2.302009100092822919e-02
-5.008729477156000087e-02,2.300587614894970476e-02
-5.006714473499999929e-02,2.299003148655644896e-02
-5.004699469843999771e-02,2.299232372420621784e-02
-5.002684466186999718e-02,2.295167002876578877e-02
-5.000669462531000253e-02,2.292915323336838090e-02
-4.998654458875000095e-02,2.289802439239803367e-02
-4.996639455218999937e-02,2.288183812543841816e-02
-4.994624451561999884e-02,2.288059443248953786e-02
-4.992609447905999726e-02,2.288857221228070282e-02
-4.990594444250000261e-02,2.288615315862150418e-02
-4.988579440594000103e-02,2.290596218260845460e-02
-4.986564436937000050e-02,2.291568352397519576e-02
-4.984549433280999892e-02,2.291159920269950773e-02
-4.982534429624999733e-02,2.290656420077421748e-02
-4.980519425969000269e-02,2.290452395524203433e-02
-4.978504422312000216e-02,2.291446970486264029e-02
-4.976489418656000058e-02,2.288617635960000368e-02
-4.974474414999999899e-02,2.289661795510614106e-02
-4.972459411343999741e-02,2.291533022944983178e-02
-4.970444407686999688e-02,2.289215802169880867e-02
-4.968429404031000224e-02,2.289524487530817526e-02
-4.966414400375000066e-02,2.288713896577455192e-02
-4.964399396718999907e-02,2.290745010305965737e-02
-4.962384393061999854e-02,2.290610160139483834e-02
-4.960369389405999696e-02,2.288130867290268794e-02
-4.958354385750000232e-02,2.286562041722305788e-02
-4.956339382094000073e-02,2.287189769870168893e-02
-4.954324378437000020e-02,2.286781887471926039e-02
-4.952309374780999862e-02,2.285546611927746774e-02
-4.950294371124999704e-02,2.283685167727424539e-02
-4.948279367469000239e-02,2.284763992162859234e-02
-4.946264363812000187e-02,2.284852431085598531e-02
-4.944249360156000028e-02,2.283267747400804029e-02
-4.942234356499999870e-02,2.280901483838774363e-02
-4.940219352843999712e-02,2.276660873179417108e-02
-4.938204349186999659e-02,2.275561431515958979e-02
-4.936189345531000194e-02,2.276518296903623159e-02
-4.934174341875000036e-02,2.277183266665113240e-02
-4.932159338218999878e-02,2.275401457337608568e-02
-4.930144334561999825e-02,2.277102673446693148e-02
-4.928129330905999667e-02,2.274797728827336260e-02
-4.926114327250000202e-02,2.271741533443523073e-02
-4.924099323594000044e-02,2.269902910824663639e-02
-4.922084319936999991e-02,2.269980350857280643e-02
-4.920069316280999833e-02,2.268540464789645800e-02
-4.918054312624999674e-02,2.266869339056333532e-02
-4.916039308969000210e-02,2.264276389046140925e-02
-4.914024305312000157e-02,2.262738019434145514e-02
-4.912009301655999999e-02,2.264045163197310820e-02
-4.909994297999999840e-02,2.264468066547330183e-02
-4.907979294343999682e-02,2.262246711590253090e-02
-4.905964290687000323e-02,2.260947535617977705e-02
-4.903949287031000165e-02,2.261469340641873715e-02
-4.901934283375000007e-02,2.259688419669711804e-02
-4.899919279718999848e-02,2.260457296427961782e-02
-4.897904276061999795e-02,2.258263189426670467e-02
-4.895889272406000331e-02,2.258345260821266465e-02
-4.893874268750000173e-02,2.259834389453850914e-02
-4.891859265094000014e-02,2.259699635552291086e-02
-4.889844261436999961e-02,2.257569201114364987e-02
-4.887829257780999803e-02,2.257396485990579779e-02
-4.885814254125000339e-02,2.254545089129948721e-02
-4.883799250469000180e-02,2.252767185893182061e-02
-4.881784246812000128e-02,2.252567622822670285e-02
-4.879769243155999969e-02,2.251286991777800423e-02
-4.877754239499999811e-02,2.250404432036922503e-02
-4.875739235844000347e-02,2.248842662800926151e-02
-4.873724232187000294e-02,2.252337845251264903e-02
-4.871709228531000135e-02,2.250851896532155005e-02
-4.869694224874999977e-02,2.250120977825049301e-02
-4.867679221218999819e-02,2.248369642573967708e-02
-4.865664217561999766e-02,2.247574295453987764e-02
-4.863649213906000301e-02,2.246657922036695773e-02
-4.861634210250000143e-02,2.245434196017986536e-02
-4.859619206593999985e-02,2.241934293868447919e-02
-4.857604202936999932e-02,2.239405808512041213e-02
-4.855589199280999774e-02,2.238041792792546184e-02
-4.853574195625000309e-02,2.235873423180550004e-02
-4.851559191969000151e-02,2.234490408163222752e-02
-4.849544188312000098e-02,2.234093972230358216e-02
-4.847529184655999940e-02,2.235783875512426661e-02
-4.845514180999999782e-02,2.234165811003604313e-02
-4.843499177344000317e-02,2.234092302430363414e-02
-4.841484173687000264e-02,2.231321168316340031e-02
-4.839469170031000106e-02,2.231083989671297022e-02
-4.837454166374999948e-02,2.233202287707492656e-02
-4.835439162718999789e-02,2.234645122652791777e-02
-4.833424159061999736e-02,2.232373383089041735e-02
-4.831409155406000272e-02,2.229248023511248497e-02
-4.829394151750000114e-02,2.229905178599698654e-02
-4.827379148093999955e-02,2.225368939500284998e-02
-4.825364144436999903e-02,2.223211242383703323e-02
-4.823349140780999744e-02,2.224702687263541839e-02
-4.821334137125000280e-02,2.223928634170606669e-02
-4.819319133469000122e-02,2.222664587419831070e-02
-4.817304129812000069e-02,2.221400553126868377e-02
-4.815289126155999910e-02,2.223183223855537335e-02
-4.813274122499999752e-02,2.226043187841131310e-02
-4.811259118844000288e-02,2.228910747695261527e-02
-4.809244115187000235e-02,2.229437700740631231e-02
-4.807229111531000076e-02,2.230685904097445132e-02
-4.805214107874999918e-02,2.232157770504385533e-02
-4.803199104218999760e-02,2.233667240028043566e-02
-4.801184100561999707e-02,2.234835521755829460e-02
-4.799169096906000243e-02,2.234585334888629718e-02
-4.797154093250000084e-02,2.232025136696145010e-02
-4.795139089593999926e-02,2.231479270425108449e-02
-4.793124085936999873e-02,2.232056193345220360e-02
-4.791109082280999715e-02,2.232485247683936580e-02
-4.789094078625000250e-02,2.231882471856624223e-02
-4.787079074969000092e-02,2.232224270538361172e-02
-4.785064071312000039e-02,2.231541820199735293e-02
-4.783049067655999881e-02,2.234873116265331111e-02
-4.781034063999999723e-02,2.235233819112507694e-02
-4.779019060344000258e-02,2.234221542503751767e-02
-4.777004056687000205e-02,2.234006334458269252e-02
-4.774989053031000047e-02,2.235873693175340418e-02
-4.772974049374999889e-02,2.235893555006865374e-02
-4.770959045718999730e-02,2.234771402749736319e-02
-4.768944042061999677e-02,2.234290588235251715e-02
-4.766929038406000213e-02,2.233567149878776595e-02
-4.764914034750000055e-02,2.232802312170108217e-02
-4.762899031093999896e-02,2.231111525289317804e-02
-4.760884027436999844e-02,2.231169683798005232e-02
-4.758869023780999685e-02,2.227062735962266962e-02
-4.756854020125000221e-02,2.226874781535213149e-02
-4.754839016469000063e-02,2.226667585222725718e-02
-4.752824012812000010e-02,2.225565357086188578e-02
-4.750809009155999851e-02,2.224659951980748757e-02
-4.748794005499999693e-02,2.222681036263519233e-02
-4.746779001844000229e-02,2.222496557339874099e-02
-4.744763998187000176e-02,2.219975548936513332e-02
-4.742748994531000017e-02,2.216901096514034553e-02
-4.740733990874999859e-02,2.211490114611839794e-02
-4.738718987218999701e-02,2.209345127635917519e-02
-4.736703983562000342e-02,2.208497312056856288e-02
-4.734688979906000184e-02,2.206405410088521299e-02
-4.732673976250000025e-02,2.202185460146280360e-02
-4.730658972593999867e-02,2.201061195723529387e-02
-4.728643968936999814e-02,2.201071110330882555e-02
-4.726628965280999656e-02,2.197898177761628546e-02
-4.724613961625000191e-02,2.197472202541352407e-02
-4.722598957969000033e-02,2.198419216969764792e-02
-4.720583954311999980e-02,2.195924871684480639e-02
-4.718568950655999822e-02,2.199678727717459606e-02
-4.716553946999999664e-02,2.201626748057671640e-02
-4.714538943344000199e-02,2.202690538177493398e-02
-4.712523939687000146e-02,2.202892843778979370e-02
-4.710508936030999988e-02,2.202055774309682329e-02
-4.708493932374999830e-02,2.201078453645566313e-02
-4.706478928718999671e-02,2.200666952818821492e-02
-4.704463925062000312e-02,2.198161217694582364e-02
-4.702448921406000154e-02,2.197901020181615775e-02
-4.700433917749999996e-02,2.195755394006617192e-02
-4.698418914093999837e-02,2.193507424630187358e-02
-4.696403910436999785e-02,2.191157112052325925e-02
-4.694388906781000320e-02,2.190874180162588614e-02
-4.692373903125000162e-02,2.189107678090061737e-02
-4.690358899469000004e-02,2.188725553240122162e-02
-4.688343895811999951e-02,2.188263828625748586e-02
-4.686328892155999792e-02,2.187923404607084246e-02
-4.684313888500000328e-02,2.186820319599495910e-02
-4.682298884844000170e-02,2.188714330109360617e-02
-4.680283881187000117e-02,2.185721972638070276e-02
-4.678268877530999958e-02,2.184842484993956141e-02
-4.676253873874999800e-02,2.183906143287461799e-02
-4.674238870219000336e-02,2.183997809463366496e-02
-4.672223866562000283e-02,2.185823554553855200e-02
-4.670208862906000125e-02,2.186344267140776648e-02
-4.668193859249999966e-02,2.184877210129292438e-02
-4.666178855593999808e-02,2.185182140025779957e-02
-4.664163851936999755e-02,2.183320821536119394e-02
-4.662148848281000291e-02,2.183439707354597331e-02
-4.660133844625000132e-02,2.182686012367169096e-02
-4.658118840968999974e-02,2.181765807606019306e-02
-4.656103837311999921e-02,2.181770947926299151e-02
-4.654088833655999763e-02,2.180933834288390633e-02
-4.652073830000000298e-02,2.179960537724482186e-02
-4.650058826344000140e-02,2.179942913089722573e-02
-4.648043822687000087e-02,2.179113361344495875e-02
-4.646028819030999929e-02,2.178371006364768214e-02
-4.644013815374999771e-02,2.176638567351427134e-02
-4.641998811719000306e-02,2.175699396135771096e-02
-4.639983808062000253e-02,2.174475890054093294e-02
-4.637968804406000095e-02,2.174253547305672954e-02
-4.635953800749999937e-02,2.177218168701400974e-02
-4.633938797093999779e-02,2.176199354685228599e-02
-4.631923793436999726e-02,2.173181093342956005e-02
-4.629908789781000261e-02,2.174278927268979630e-02
-4.627893786125000103e-02,2.172694254909469241e-02
-4.625878782468999945e-02,2.171295347799455377e-02
-4.623863778811999892e-02,2.170780695825458989e-02
-4.621848775155999733e-02,2.169180887222772053e-02
-4.619833771500000269e-02,2.167774427280304630e-02
-4.617818767844000111e-02,2.170514391718910210e-02
-4.615803764187000058e-02,2.168246392896739858e-02
-4.613788760530999900e-02,2.165807789983876727e-02
-4.611773756874999741e-02,2.164276185644027628e-02
-4.609758753219000277e-02,2.161868228045893750e-02
-4.607743749562000224e-02,2.160552740718887574e-02
-4.605728745906000066e-02,2.161919756279829380e-02
-4.603713742249999907e-02,2.158783976986979741e-02
-4.601698738593999749e-02,2.158538860223293415e-02
-4.599683734936999696e-02,2.156548593173077122e-02
-4.597668731281000232e-02,2.154789580511408745e-02
-4.595653727625000073e-02,2.153261822238288284e-02
-4.593638723968999915e-02,2.154640212915313185e-02
-4.591623720311999862e-02,2.153909502819954455e-02
-4.589608716655999704e-02,2.157200132732297118e-02
-4.587593713000000240e-02,2.155751994609123035e-02
-4.585578709344000081e-02,2.154410031031239042e-02
-4.583563705687000028e-02,2.154259103943423348e-02
-4.581548702030999870e-02,2.155307060862039770e-02
-4.579533698374999712e-02,2.153422023148840805e-02
-4.577518694719000247e-02,2.154719855262819325e-02
-4.575503691062000194e-02,2.156347772089926840e-02
-4.573488687406000036e-02,2.156150623796646709e-02
-4.571473683749999878e-02,2.156298458402187285e-02
-4.569458680093999720e-02,2.153536365942562009e-02
-4.567443676436999667e-02,2.153578086026822561e-02
-4.565428672781000202e-02,2.156423618654967900e-02
-4.563413669125000044e-02,2.154189176198739730e-02
-4.561398665468999886e-02,2.156742798477839784e-02
-4.559383661811999833e-02,2.157984107454261058e-02
-4.557368658155999674e-02,2.158121586898869779e-02
-4.555353654500000210e-02,2.157162496092735263e-02
-4.553338650844000052e-02,2.156192021110290430e-02
-4.551323647186999999e-02,2.157186890756261285e-02
-4.549308643530999841e-02,2.156015492763101865e-02
-4.547293639874999682e-02,2.153956332419719455e-02
-4.545278636219000218e-02,2.153171610228955812e-02
-4.543263632562000165e-02,2.153468273347033946e-02
-4.541248628906000007e-02,2.154660261840544294e-02
-4.539233625249999848e-02,2.153701149516369304e-02
-4.537218621593999690e-02,2.151675798319286487e-02
-4.535203617937000331e-02,2.150746996987433143e-02
-4.533188614281000173e-02,2.150527782962199930e-02
-4.531173610625000014e-02,2.148855955740745782e-02
-4.529158606968999856e-02,2.150071287231832343e-02
-4.527143603311999803e-02,2.149158261342231854e-02
-4.525128599656000339e-02,2.148294507236815643e-02
-4.523113596000000181e-02,2.147681249405381312e-02
-4.521098592344000022e-02,2.146938784570390224e-02
-4.519083588686999969e-02,2.147858369838460957e-02
-4.517068585030999811e-02,2.146896047249047604e-02
-4.515053581375000347e-02,2.144059664318516759e-02
-4.513038577719000188e-02,2.144884481868178025e-02
-4.511023574062000135e-02,2.143657084418632008e-02
